INDEX VERSION 1.134+C:\Users\RAMANAND\Documents\workspace-spring-tool-suite-4-4.28.0.RELEASE\.metadata\.plugins\org.eclipse.jdt.core
1649872078.index
1706001528.index
679981360.index
1795520124.index
3003859989.index
2698340712.index
3778410366.index
2708686152.index
3182407255.index
2160695576.index
1106233806.index
1145185682.index
2225315402.index
1464418572.index
97968875.index
2780519862.index
45778523.index
1824572210.index
2719991878.index
3659508181.index
3984858144.index
4155586005.index
2105119780.index
2920098982.index
2315320689.index
4275341011.index
2316499740.index
3282704649.index
2387635093.index
2418795355.index
376527597.index
2620880716.index
1660528180.index
1256815145.index
2080895086.index
2016187862.index
268101878.index
3345846408.index
2998660369.index
1339277263.index
1717677946.index
2780096701.index
3190356405.index
3685945524.index
2413551447.index
1293745999.index
3144602427.index
4040661538.index
754769681.index
1829771529.index
1858782962.index
2279720823.index
2091755541.index
51254363.index
529467975.index
3199716846.index
2663585399.index
2478529818.index
4150638096.index
2127969372.index
3413026378.index
4203265730.index
4005104739.index
2863416866.index
3933887681.index
1726235783.index
2117730322.index
1788268946.index
965004780.index
1373287079.index
1216755431.index
4157632224.index
3150577369.index
3423557627.index
3386737087.index
1959037281.index
2056487790.index
1661404673.index
779019061.index
1865797976.index
764293261.index
651261220.index
2854999327.index
1760755365.index
2431630239.index
527353723.index
2198010421.index
1767051672.index
1759741883.index
3500926838.index
3151391387.index
924946099.index
2705174408.index
1605678423.index
3485548278.index
1993779390.index
2044771731.index
3812968180.index
2713538488.index
2353942686.index
3808445668.index
3399720380.index
2387526472.index
731057560.index
1115573543.index
2776851051.index
2379991284.index
3843411262.index
2123918773.index
4117284845.index
2911312216.index
2538816289.index
2851352650.index
725414701.index
3895712378.index
2985830915.index
3933081473.index
1798134230.index
2079100338.index
1658694528.index
1753041870.index
1833205200.index
1900949799.index
2604048397.index
1053457035.index
2479095701.index
3503505159.index
2414704203.index
